Autocorrelation function values using Ring Shift
t | R(t)
0.0 1.0000000000000016
0.1001001001001001 0.8215237436894887
0.2002002002002002 0.8086764344888798
0.3003003003003003 0.7823931536025596
0.4004004004004004 0.7455223907562951
0.5005005005005005 0.7160085748048995
0.6006006006006006 0.6847722864775503
0.7007007007007008 0.6304642803890097
0.8008008008008008 0.5671098552647652
0.9009009009009009 0.5069537536870692
1.001001001001001 0.4362924205927638
1.1011011011011012 0.37756483874266394
1.2012012012012012 0.2847598554619483
1.3013013013013013 0.21220949325836866
1.4014014014014016 0.13813917315263544
1.5015015015015016 0.05310105759081846
1.6016016016016017 -0.022521885637826318
1.7017017017017018 -0.11234034630558988
1.8018018018018018 -0.18452912387416553
1.9019019019019021 -0.259791618658102
2.002002002002002 -0.3532527851266115
2.1021021021021022 -0.4137709495938228
2.2022022022022023 -0.48999928845040996
2.3023023023023024 -0.5460557720321797
2.4024024024024024 -0.6148094946921676
2.5025025025025025 -0.6610919111027788
2.6026026026026026 -0.7125358604749283
2.702702702702703 -0.7492922688997239
2.802802802802803 -0.7700998879891444
2.902902902902903 -0.7954980254984493
3.0030030030030033 -0.810393660847376
3.1031031031031033 -0.8174699693859251
3.2032032032032034 -0.8168135375216385
3.3033033033033035 -0.8049471568239999
3.4034034034034035 -0.7925578680519796
3.5035035035035036 -0.7649965799760251
3.6036036036036037 -0.7294537395421704
3.7037037037037037 -0.6764926340331688
3.8038038038038042 -0.6467059232411928
3.9039039039039043 -0.5845476373331956
4.004004004004004 -0.5358672074800417
4.104104104104104 -0.46662808446281007
4.2042042042042045 -0.3959955909302756
4.3043043043043046 -0.32570401615949235
4.404404404404405 -0.24705663923900403
4.504504504504505 -0.16671904610394303
4.604604604604605 -0.08858380628704735
4.704704704704705 0.010804924095926169
4.804804804804805 0.08396047265521561
4.904904904904905 0.16660867029564916
5.005005005005005 0.23691809119963125
5.105105105105105 0.31462945351999816
5.205205205205205 0.3944213828448458
5.305305305305305 0.46023582461320356
5.405405405405406 0.524256863554868
5.505505505505506 0.5915684674031305
5.605605605605606 0.6477945410632575
5.705705705705706 0.6894722404804504
5.805805805805806 0.7335142390873315
5.9059059059059065 0.75814579445169
6.0060060060060065 0.7907887952241376
6.106106106106107 0.8105680742942569
6.206206206206207 0.8210748734436103
6.306306306306307 0.8239987851001755
6.406406406406407 0.8079938489092411
6.506506506506507 0.7945356305501384
6.606606606606607 0.7747656357394561
6.706706706706707 0.7358931339075634
6.806806806806807 0.7042762389109787
6.906906906906907 0.649267690425669
7.007007007007007 0.5981645703460097
7.107107107107107 0.5428914335446998
7.207207207207207 0.48590092752028424
7.307307307307307 0.4228852560796556
7.407407407407407 0.3486038613705522
7.507507507507508 0.2684537901107097
7.6076076076076085 0.1999014641395964
7.7077077077077085 0.11416230774785316
7.807807807807809 0.028987049740743627
7.907907907907909 -0.048326207039211075
8.008008008008009 -0.1274409611834228
8.108108108108109 -0.22123208936529576
8.208208208208209 -0.2960544227639148
8.308308308308309 -0.3591076616180983
8.408408408408409 -0.43132159150104676
8.508508508508509 -0.5203387775154076
8.608608608608609 -0.5688446713764659
8.70870870870871 -0.6261793274280153
8.80880880880881 -0.6812940663986052
8.90890890890891 -0.7104829078653957
9.00900900900901 -0.746595384970809
9.10910910910911 -0.7869605199435705
9.20920920920921 -0.7982983888911818
9.30930930930931 -0.8202516862329091
9.40940940940941 -0.8231737221723824
9.50950950950951 -0.8083998840573303
9.60960960960961 -0.8018919638626434
9.70970970970971 -0.7939971134092073
9.80980980980981 -0.7535049660981482
9.90990990990991 -0.7176458415518149
10.01001001001001 -0.6807889503212299
10.11011011011011 -0.6300761196128568
10.21021021021021 -0.5802674160444474
10.31031031031031 -0.5163869804233188
10.41041041041041 -0.45029363889222646
10.51051051051051 -0.3725654699904878
10.61061061061061 -0.29272588051738824
10.710710710710712 -0.22375743542030138
10.810810810810812 -0.14340318949391198
10.910910910910912 -0.05700866329484922
11.011011011011012 0.01894484845038055
11.111111111111112 0.10633056407605623
11.211211211211213 0.188008310948478
11.311311311311313 0.2631809333818794
11.411411411411413 0.33216283475523334
11.511511511511513 0.4158167831142939
11.611611611611613 0.485526023635551
11.711711711711713 0.5390003194386492
11.811811811811813 0.6059954257681646
11.911911911911913 0.6559234621953504
12.012012012012013 0.700459492436574
12.112112112112113 0.7361574901615001
12.212212212212213 0.7639891635989371
12.312312312312313 0.7971915613657649
12.412412412412413 0.8126342721850323
12.512512512512513 0.8192212722220978
12.612612612612613 0.8259661076498543
12.712712712712714 0.8044889791268051
12.812812812812814 0.7816773900018835
12.912912912912914 0.7647865244147807
13.013013013013014 0.7316946475516015
13.113113113113114 0.6943892214448342
13.213213213213214 0.6467870091440736
13.313313313313314 0.5904143796943191
13.413413413413414 0.5336937878485066
13.513513513513514 0.47004137773761934
13.613613613613614 0.40440469436784793
13.713713713713714 0.33422294536487634
13.813813813813814 0.2592875564673983
13.913913913913914 0.16646426602589517
14.014014014014014 0.0838946006772213
14.114114114114114 0.006558394482558019
14.214214214214214 -0.06473726049937037
14.314314314314315 -0.15508483629352773
14.414414414414415 -0.2336641555847021
14.514514514514515 -0.29594114242823366
14.614614614614615 -0.3857354161256901
14.714714714714715 -0.45704262811300855
14.814814814814815 -0.5168883425815998
14.914914914914915 -0.5823343780970568
15.015015015015017 -0.6322514863905991
15.115115115115117 -0.6751090043328236
15.215215215215217 -0.7244200580376958
15.315315315315317 -0.7546811413390878
15.415415415415417 -0.788965360466405
15.515515515515517 -0.8143243310123579
15.615615615615617 -0.8205325948210219
15.715715715715717 -0.8210905881026376
15.815815815815817 -0.817558641255318
15.915915915915917 -0.8012680259290452
16.016016016016017 -0.7744096467057153
16.116116116116117 -0.748198659105104
16.216216216216218 -0.7181811687796853
16.316316316316318 -0.6608239276747686
16.416416416416418 -0.6257811779980388
16.516516516516518 -0.5689962692047245
16.616616616616618 -0.49148847889191294
16.716716716716718 -0.4293440157914401
16.816816816816818 -0.3580740211109328
16.916916916916918 -0.2886359365645429
17.017017017017018 -0.2078598299609712
17.117117117117118 -0.1176999973971717
17.217217217217218 -0.03451365759955917
17.31731731731732 0.03268842811634844
17.41741741741742 0.10890186323175698
17.51751751751752 0.20516753421506098
17.61761761761762 0.2672166643890858
17.71771771771772 0.3539105482380937
17.81781781781782 0.42978702015708226
17.91791791791792 0.4959239357597578
18.01801801801802 0.5455182470106145
18.11811811811812 0.6145049681110952
18.21821821821822 0.6720966087725294
18.31831831831832 0.7062804549308828
18.41841841841842 0.7525316615042837
18.51851851851852 0.7827243145823725
18.61861861861862 0.8112533502867116
18.71871871871872 0.8187035121404049
18.81881881881882 0.8164109994766053
18.91891891891892 0.8251790426288409
19.01901901901902 0.8146138801525777
19.11911911911912 0.7888155463034306
19.21921921921922 0.7636687172135833
19.31931931931932 0.7307045373647698
19.41941941941942 0.6834567251058615
19.51951951951952 0.6422519701611615
19.61961961961962 0.5927970884732642
19.71971971971972 0.5097095242335126
19.81981981981982 0.46692201942852757
19.91991991991992 0.3938008727017069
20.02002002002002 0.3272225822591525
20.12012012012012 0.2396036737080971
20.22022022022022 0.16706587380176438
20.32032032032032 0.0787451411100393
20.42042042042042 -0.01331227356486124
20.52052052052052 -0.08540715720126948
20.62062062062062 -0.16830402030931138
20.72072072072072 -0.2492007665973869
20.82082082082082 -0.3178156729783555
20.92092092092092 -0.3871468131284071
21.02102102102102 -0.4742830133147887
21.12112112112112 -0.5360619119698741
21.22122122122122 -0.5954406261582609
21.32132132132132 -0.6494304701195098
21.421421421421424 -0.6827076174790039
21.521521521521525 -0.7388321601193255
21.621621621621625 -0.7634503489450829
21.721721721721725 -0.7994388731728131
21.821821821821825 -0.806821513385353
21.921921921921925 -0.8089564295790297
22.022022022022025 -0.828081464140104
22.122122122122125 -0.8158767322072816
22.222222222222225 -0.8009540640610042
22.322322322322325 -0.7739509025960817
22.422422422422425 -0.7325911892423617
22.522522522522525 -0.6944884609727929
22.622622622622625 -0.6660204626003379
22.722722722722725 -0.6059773613588942
22.822822822822825 -0.558659146419163
22.922922922922925 -0.4954898026231174
23.023023023023026 -0.4235175246241604
23.123123123123126 -0.35278566207022416
23.223223223223226 -0.2665512587217958
23.323323323323326 -0.18440530671278446
23.423423423423426 -0.10815364568154956
23.523523523523526 -0.026095345484717862
23.623623623623626 0.06105814208952296
23.723723723723726 0.1476565591269986
23.823823823823826 0.21389733922480425
23.923923923923926 0.2910017183067919
24.024024024024026 0.38491680189624344
24.124124124124126 0.4381258138479153
24.224224224224226 0.511263400880897
24.324324324324326 0.5793968396846562
24.424424424424426 0.6257687052208545
24.524524524524526 0.6850665814053701
24.624624624624627 0.7086422078007427
24.724724724724727 0.7626282826675028
24.824824824824827 0.7875754064725218
24.924924924924927 0.8047696416941702
