Autocorrelation function values using FFT
t | R(t)
0.0 1.0
0.1001001001001001 0.8181277712355518
0.2002002002002002 0.7967402452661645
0.3003003003003003 0.7829898692067385
0.4004004004004004 0.7574364550000502
0.5005005005005005 0.7216399463006415
0.6006006006006006 0.674612349385854
0.7007007007007008 0.6138668289112177
0.8008008008008008 0.5722880041801149
0.9009009009009009 0.5128323463551047
1.001001001001001 0.43779648902900437
1.1011011011011012 0.36716817647051814
1.2012012012012012 0.2844749905463088
1.3013013013013013 0.2107217351725754
1.4014014014014016 0.13786074573765097
1.5015015015015016 0.05490031876822649
1.6016016016016017 -0.026470755366608714
1.7017017017017018 -0.11808211793885023
1.8018018018018018 -0.19410799283606733
1.9019019019019021 -0.2640058489820312
2.002002002002002 -0.345674145881435
2.1021021021021022 -0.41606274638318863
2.2022022022022023 -0.49819561999702855
2.3023023023023024 -0.5543242383406882
2.4024024024024024 -0.6074809460692755
2.5025025025025025 -0.6653838790874693
2.6026026026026026 -0.7095899416499872
2.702702702702703 -0.7516797985466067
2.802802802802803 -0.7707043628953212
2.902902902902903 -0.7959652457793549
3.0030030030030033 -0.8122078832684867
3.1031031031031033 -0.8226864118805987
3.2032032032032034 -0.8232355018665803
3.3033033033033035 -0.815957093687784
3.4034034034034035 -0.7868036917794402
3.5035035035035036 -0.7549173252511712
3.6036036036036037 -0.7239386133789854
3.7037037037037037 -0.6836038974211649
3.8038038038038042 -0.6467443438847993
3.9039039039039043 -0.5843128420227077
4.004004004004004 -0.5256500155219046
4.104104104104104 -0.4564242697947579
4.2042042042042045 -0.3900218995807027
4.3043043043043046 -0.31382439521786176
4.404404404404405 -0.24621635415474086
4.504504504504505 -0.1594693755758692
4.604604604604605 -0.06545565017148311
4.704704704704705 0.0043528339977516655
4.804804804804805 0.0910773132185855
4.904904904904905 0.17981600623808272
5.005005005005005 0.24853670884256693
5.105105105105105 0.3243589682569638
5.205205205205205 0.4052885902987281
5.305305305305305 0.46781592114535625
5.405405405405406 0.5421440822838214
5.505505505505506 0.5964443352586537
5.605605605605606 0.6594394425743472
5.705705705705706 0.6909366171283283
5.805805805805806 0.741776805447548
5.9059059059059065 0.7614980139822797
6.0060060060060065 0.8067932567433818
6.106106106106107 0.810801260577687
6.206206206206207 0.8166799462108036
6.306306306306307 0.8231574474508139
6.406406406406407 0.807933783079081
6.506506506506507 0.7940064006312069
6.606606606606607 0.7634389190941361
6.706706706706707 0.7427816984759985
6.806806806806807 0.6947208802842202
6.906906906906907 0.65257447563586
7.007007007007007 0.6041487093177633
7.107107107107107 0.5408193082299741
7.207207207207207 0.47390160704342266
7.307307307307307 0.4071280505100737
7.407407407407407 0.34005416759146057
7.507507507507508 0.2481276043211621
7.6076076076076085 0.17568939328622407
7.7077077077077085 0.10773334078060182
7.807807807807809 0.0042347728183816415
7.907907907907909 -0.0704128067215531
8.008008008008009 -0.15498190095472764
8.108108108108109 -0.24210139817049584
8.208208208208209 -0.31186743581658366
8.308308308308309 -0.38175027614402857
8.408408408408409 -0.4501314822646175
8.508508508508509 -0.5191776726999096
8.608608608608609 -0.5815459557020558
8.70870870870871 -0.6397636400628528
8.80880880880881 -0.6766367774780897
8.90890890890891 -0.7292519735823259
9.00900900900901 -0.766864492666084
9.10910910910911 -0.7859946689570018
9.20920920920921 -0.8025649454837964
9.30930930930931 -0.8073759331828657
9.40940940940941 -0.8237344560462491
9.50950950950951 -0.8061802279845254
9.60960960960961 -0.8026483759971342
9.70970970970971 -0.7700621945265296
9.80980980980981 -0.7435131581698429
9.90990990990991 -0.708764334735133
10.01001001001001 -0.6657509068477951
10.11011011011011 -0.6069436169172747
10.21021021021021 -0.5618056051997419
10.31031031031031 -0.5007331420562475
10.41041041041041 -0.42853551526821043
10.51051051051051 -0.35316095068542586
10.61061061061061 -0.2574384355491188
10.710710710710712 -0.18698149003308442
10.810810810810812 -0.10992521468490894
10.910910910910912 -0.022856976225246017
11.011011011011012 0.050564657732517795
11.111111111111112 0.13043491015751305
11.211211211211213 0.21590158119207073
11.311311311311313 0.28963921692571243
11.411411411411413 0.3611462714801401
11.511511511511513 0.43366144812301133
11.611611611611613 0.514986611321878
11.711711711711713 0.5645267116900894
11.811811811811813 0.6158605010991027
11.911911911911913 0.6774307912763836
12.012012012012013 0.7242952514164749
12.112112112112113 0.7557060925358269
12.212212212212213 0.7761855275666273
12.312312312312313 0.8104159733967997
12.412412412412413 0.8005986794179952
12.512512512512513 0.823947202572607
12.612612612612613 0.8219520269902199
12.712712712712714 0.7981896035108222
12.812812812812814 0.7819878232043488
12.912912912912914 0.7517033920245646
13.013013013013014 0.7178833696380331
13.113113113113114 0.676360757415622
13.213213213213214 0.6211471327355585
13.313313313313314 0.5632161262369948
13.413413413413414 0.5154469106096267
13.513513513513514 0.4390030076328343
13.613613613613614 0.36367245788261243
13.713713713713714 0.2996247826738974
13.813813813813814 0.2088091416049428
13.913913913913914 0.12701622946804683
14.014014014014014 0.054083145594081374
14.114114114114114 -0.025481171131770657
14.214214214214214 -0.10984330025945563
14.314314314314315 -0.1963129852132639
14.414414414414415 -0.26821683403091134
14.514514514514515 -0.3445066676382036
14.614614614614615 -0.40806440113774106
14.714714714714715 -0.48069987726491
14.814814814814815 -0.5634355959415259
14.914914914914915 -0.602998695490929
15.015015015015017 -0.6523493089177328
15.115115115115117 -0.7044212569650193
15.215215215215217 -0.7514448688987622
15.315315315315317 -0.7786651006871077
15.415415415415417 -0.8010669040786561
15.515515515515517 -0.8074853378399363
15.615615615615617 -0.8167964659290791
15.715715715715717 -0.8049588193746167
15.815815815815817 -0.8072450647853476
15.915915915915917 -0.7854249556862865
16.016016016016017 -0.7559275885767635
16.116116116116117 -0.7237398970673019
16.216216216216218 -0.683238829118246
16.316316316316318 -0.6378919996148891
16.416416416416418 -0.5836254465168357
16.516516516516518 -0.521020114400369
16.616616616616618 -0.45547208127475547
16.716716716716718 -0.388033862546523
16.816816816816818 -0.31505993433976087
16.916916916916918 -0.22950125078639205
17.017017017017018 -0.15897984822832312
17.117117117117118 -0.07704824806646901
17.217217217217218 0.01140414728005281
17.31731731731732 0.08073063435742596
17.41741741741742 0.17108157797425416
17.51751751751752 0.2520112530073047
17.61761761761762 0.32909502004703767
17.71771771771772 0.3930545536868747
17.81781781781782 0.4733612401194687
17.91791791791792 0.5338723883821249
18.01801801801802 0.5946895348269391
18.11811811811812 0.6551171857686605
18.21821821821822 0.6874523853210113
18.31831831831832 0.7396461603784823
18.41841841841842 0.76273314347358
18.51851851851852 0.7847480092111151
18.61861861861862 0.8124089183171522
18.71871871871872 0.8068386687742541
18.81881881881882 0.8147342693170111
18.91891891891892 0.7954336047209062
19.01901901901902 0.7852158846491336
19.11911911911912 0.7624774361604487
19.21921921921922 0.7259140463476114
19.31931931931932 0.691259810986621
19.41941941941942 0.6444128728775946
19.51951951951952 0.5938084263822329
19.61961961961962 0.5369440687616275
19.71971971971972 0.46457323135219786
19.81981981981982 0.40230809703461584
19.91991991991992 0.3261852875845094
20.02002002002002 0.25574516563371463
20.12012012012012 0.17402712554707261
20.22022022022022 0.095122342492821
20.32032032032032 0.0070641429762884215
20.42042042042042 -0.057430169985346474
20.52052052052052 -0.14672384083250914
20.62062062062062 -0.22853615595857973
20.72072072072072 -0.3059344771431842
20.82082082082082 -0.384671748819377
20.92092092092092 -0.4455613490416853
21.02102102102102 -0.5215729872067605
21.12112112112112 -0.5713939793341353
21.22122122122122 -0.62870264326859
21.32132132132132 -0.6746823548630145
21.421421421421424 -0.7183859641400184
21.521521521521525 -0.7516045919882656
21.621621621621625 -0.7829398429862933
21.721721721721725 -0.7961433907943704
21.821821821821825 -0.8038942301378444
21.921921921921925 -0.8150755955934291
22.022022022022025 -0.800376738277637
22.122122122122125 -0.7870090327067125
22.222222222222225 -0.7687443587220386
22.322322322322325 -0.7375879491156405
22.422422422422425 -0.7130679471531255
22.522522522522525 -0.6532892454792609
22.622622622622625 -0.6035513608916996
22.722722722722725 -0.540834526633085
22.822822822822825 -0.4913214532825633
22.922922922922925 -0.41260928317129164
23.023023023023026 -0.34806016686776753
23.123123123123126 -0.27240514824282425
23.223223223223226 -0.19183501494154243
23.323323323323326 -0.1124745912530693
23.423423423423426 -0.030458424615041446
23.523523523523526 0.05811692978640992
23.623623623623626 0.13597238490912295
23.723723723723726 0.20929619233541902
23.823823823823826 0.27876654792341504
23.923923923923926 0.3632613873231959
24.024024024024026 0.43309376425585583
24.124124124124126 0.50482944511955
24.224224224224226 0.5582310475532325
24.324324324324326 0.6169173674930445
24.424424424424426 0.665583470073042
24.524524524524526 0.7128487419004621
24.624624624624627 0.746737988906538
24.724724724724727 0.7638449233301562
24.824824824824827 0.7882364462255158
24.924924924924927 0.8106984155106078
