Autocorrelation function values using FFT
t | R(t)
0.0 1.0
0.10020040080160321 0.8310730253443803
0.20040080160320642 0.8159826300759953
0.30060120240480964 0.8080504714129964
0.40080160320641284 0.7636836262813007
0.5010020040080161 0.732350230097112
0.6012024048096193 0.6917236957320294
0.7014028056112225 0.6486589522430475
0.8016032064128257 0.5873083370899923
0.9018036072144289 0.5119326663377024
1.0020040080160322 0.4485089712729721
1.1022044088176353 0.36858436010307327
1.2024048096192386 0.29912502587765455
1.3026052104208417 0.20930834899159348
1.402805611222445 0.13374553633048503
1.503006012024048 0.04797651598979082
1.6032064128256514 -0.029931380182671767
1.7034068136272547 -0.1121945559208547
1.8036072144288577 -0.1988628769278826
1.903807615230461 -0.27422762255377453
2.0040080160320644 -0.35266887888304027
2.1042084168336674 -0.4428412687126709
2.2044088176352705 -0.4952836711732448
2.3046092184368736 -0.572308744611235
2.404809619238477 -0.6315186063258093
2.50501002004008 -0.6822492046881489
2.6052104208416833 -0.7345582116651749
2.705410821643287 -0.7654890018634941
2.80561122244489 -0.7853923418137457
2.905811623246493 -0.8219662967404546
3.006012024048096 -0.8348495910893575
3.1062124248496996 -0.8305317273044522
3.2064128256513027 -0.8339064535883504
3.306613226452906 -0.8204973721515905
3.4068136272545093 -0.8014247695376694
3.5070140280561124 -0.781737353544744
3.6072144288577155 -0.7374353865712286
3.7074148296593186 -0.7069100347452505
3.807615230460922 -0.6487716931889485
3.907815631262525 -0.5993518627104726
4.008016032064129 -0.5310433024942679
4.108216432865731 -0.46426865375783877
4.208416833667335 -0.39721634938855743
4.308617234468938 -0.3159823751217253
4.408817635270541 -0.2378400018026378
4.509018036072145 -0.14598823605641106
4.609218436873747 -0.07731204120621381
4.709418837675351 0.0015745946036065533
4.809619238476954 0.09240028317154901
4.909819639278557 0.1708102398787512
5.01002004008016 0.2594261719963197
5.110220440881764 0.3472502673861401
5.210420841683367 0.40683450476290844
5.31062124248497 0.493325755066807
5.410821643286574 0.5452628859381909
5.511022044088176 0.5929738819860921
5.61122244488978 0.6725062412708273
5.711422845691383 0.7157928096255644
5.811623246492986 0.7542259002646287
5.9118236472945895 0.7898337254035096
6.012024048096192 0.8020941013900521
6.112224448897796 0.8313820030814658
6.212424849699399 0.8410611719131998
6.312625250501002 0.8337887450134716
6.412825651302605 0.8327909009911064
6.513026052104209 0.8108297108733279
6.613226452905812 0.7625773045795936
6.713426853707415 0.7577921319969557
6.813627254509019 0.7093250064959418
6.913827655310621 0.655806319993776
7.014028056112225 0.6024638857351654
7.114228456913827 0.5425757476452445
7.214428857715431 0.49092696980087913
7.3146292585170345 0.41697505802660056
7.414829659318637 0.3465113123551843
7.515030060120241 0.260242131290327
7.615230460921844 0.1794241686278633
7.715430861723447 0.07347692327918322
7.81563126252505 0.013572638820346346
7.915831663326654 -0.07974801264242556
8.016032064128257 -0.1492535389427208
8.11623246492986 -0.2335074902562254
8.216432865731463 -0.32231540829754696
8.316633266533067 -0.3933454148052206
8.41683366733467 -0.4543258589867626
8.517034068136272 -0.5457308995187801
8.617234468937877 -0.6075586169001279
8.71743486973948 -0.6533099559318253
8.817635270541082 -0.7045224713408987
8.917835671342687 -0.7477168175483616
9.01803607214429 -0.7766983642279064
9.118236472945892 -0.8126838808405663
9.218436873747494 -0.8144566923727372
9.318637274549099 -0.8354423373920857
9.418837675350701 -0.8375650876102163
9.519038076152304 -0.8229020853096123
9.619238476953909 -0.8114300790230564
9.719438877755511 -0.8028071393720144
9.819639278557114 -0.7614758443819154
9.919839679358718 -0.7162310513335787
10.02004008016032 -0.6613578722678466
10.120240480961924 -0.6228652579416234
10.220440881763528 -0.5630939069380857
10.32064128256513 -0.4954452872590425
10.420841683366733 -0.4289301751596467
10.521042084168338 -0.36337820478743
10.62124248496994 -0.2739594649445039
10.721442885771543 -0.19778704302312822
10.821643286573147 -0.1155600344591021
10.92184368737475 -0.031507777216711455
11.022044088176353 0.04701047754356557
11.122244488977957 0.13194680761259778
11.22244488977956 0.22359598049556964
11.322645290581162 0.2927836962417788
11.422845691382767 0.374634213856242
11.52304609218437 0.4540625543428318
11.623246492985972 0.5208205450949717
11.723446893787575 0.5673856236470612
11.823647294589179 0.6467689569624626
11.923847695390782 0.6795373547153764
12.024048096192384 0.7351821671954142
12.124248496993989 0.7645591827507432
12.224448897795591 0.7885459068958116
12.324649298597194 0.8136033860089716
12.424849699398798 0.8285627986950875
